I##TITLE= Mattson Instruments
##JCAMP_DX= 4.24
##OWNER= 
##ORIGIN= 
##DATA TYPE= INFRARED SPECTRUM
##YUNITS= % Transmittance
##XUNITS= 1/CM
##FIRSTX= 401.12781972
##FIRSTY= 36.53690719
##LASTX= 3999.70720246
##XFACTOR= 1.00000000
##YFACTOR= 0.00083275
##MINY= 0.00000102
##MAXY= 54.57400131
##DELTAX= 3.85699826
##NPOINTS= 934
##XYDATA= (X++(Y..Y))
401.12  43874 45714 47512 49201 50783 52246 
424.26  53472 54419 55086 55464 55569 55464 
447.41  55239 54971 54769 54699 54771 54943 
470.55  55115 55200 55088 54515 53235 51771 
493.69  51375 52660 54823 56488 57028 56435 
516.83  54576 51520 48035 45180 43874 43874 
539.97  46747 50455 53401 54963 55562 55722 
563.12  55621 55332 54928 54429 53840 53187 
586.26  52476 51738 50984 50061 48943 48076 
609.40  47968 48478 49006 49299 49473 49523 
632.54  49351 49057 48811 48617 48393 47969 
655.68  47150 46018 44871 43874 43177 41940 
678.83  38536 31147 20907 13026 12379 19060 
701.97  28684 36508 40784 42131 40977 36575 
725.11  28809 20140 14158 12041 12106 13105 
748.25  16351 23525 33717 43874 51171 55619 
771.39  58246 59986 61173 61914 62163 61587 
794.54  60118 58623 58259 59040 59924 60384 
817.68  60793 61077 60305 58282 56353 55838 
840.82  56556 57591 58727 60343 62380 64152 
863.96  65024 64971 64546 64379 64590 64741 
887.10  64443 63726 62673 60930 58001 53925 
910.25  49473 45777 43874 43874 46245 48474 
933.39  48946 47226 43874 38879 32256 23725 
956.53  14269 6044 1056 0 2047 5328 
979.67  7911 8926 8739 7975 6911 5762 
1002.81  4784 4054 3833 4770 7058 10166 
1025.96  14103 19758 27179 34615 40008 42628 
1049.10  43028 41717 38012 31116 23106 18846 
1072.24  20543 24010 23233 17457 11147 8339 
1095.38  9742 14331 21134 29217 37280 43874 
1118.52  48251 50707 52184 53230 53877 54216 
1141.67  54348 53905 52461 50535 49429 49694 
1164.81  50294 49755 47814 45518 43874 42956 
1187.95  41898 40238 38365 37090 36787 37144 
1211.09  37676 38232 39008 40256 41980 43874 
1234.23  45422 46547 47192 47381 47201 46645 
1257.38  45548 43874 42076 40490 39376 38795 
1280.52  38495 37844 36371 34522 33358 33414 
1303.66  34260 35176 35842 36257 36386 36168 
1326.80  35743 35415 35390 35611 35758 35481 
1349.94  34615 33089 30791 27847 24942 22849 
1373.09  21699 21145 21038 21533 22509 23349 
1396.23  23515 23103 22540 22033 21595 21301 
1419.37  21309 21551 21815 22117 22091 20325 
1442.51  16195 11963 11216 15768 22811 27765 
1465.65  30611 33030 35162 36716 36746 32555 
1488.80  23616 17677 22132 33298 43874 49511 
1511.94  51772 53169 54044 54423 54771 55078 
1535.08  55244 55537 56110 56616 56840 56664 
1558.22  56110 55479 54233 51327 47368 45529 
1581.36  47036 48893 47828 43874 41796 43874 
1604.51  48498 52990 55326 56047 56297 56453 
1627.65  56531 56546 56317 55738 54844 53229 
1650.79  50607 48640 48885 50575 52725 54681 
1673.93  56050 56952 57660 58260 58686 58880 
1697.07  58831 58668 58611 58610 58552 58512 
1720.22  58636 58835 58942 58877 58643 58311 
1743.36  57915 57554 57446 57657 58000 58268 
1766.50  58331 58141 57837 57654 57602 57464 
1789.64  57040 56356 55695 55382 55541 56070 
1812.78  56780 57531 58267 59009 59772 60474 
1835.93  61004 61331 61508 61613 61648 61533 
1859.07  61171 60473 59427 58293 57531 57350 
1882.21  57582 57950 58319 58733 59260 59849 
1905.35  60365 60701 60825 60754 60518 60149 
1928.49  59649 58963 58013 56855 55812 55311 
1951.64  55495 56110 56797 57409 58009 58636 
1974.78  59226 59714 60114 60458 60755 60988 
1997.92  61154 61261 61339 61426 61551 61712 
2021.06  61879 62034 62177 62319 62464 62608 
2044.20  62744 62868 62981 63086 63179 63255 
2067.35  63316 63371 63421 63459 63487 63510 
2090.49  63539 63573 63603 63620 63619 63599 
2113.63  63566 63531 63500 63470 63439 63410 
2136.77  63388 63373 63356 63326 63274 63205 
2159.91  63127 63056 63003 62973 62955 62939 
2183.06  62940 62978 63048 63119 63159 63158 
2206.20  63147 63169 63226 63288 63334 63377 
2229.34  63429 63467 63458 63393 63291 63181 
2252.48  63098 63060 63048 63031 62994 62938 
2275.62  62860 62774 62714 62703 62728 62754 
2298.77  62760 62720 62601 62446 62405 62603 
2321.91  62946 63184 63187 63072 62995 62957 
2345.05  62933 62972 63083 63136 62969 62644 
2368.19  62319 62001 61669 61370 61156 61029 
2391.33  60950 60890 60852 60840 60849 60878 
2414.48  60926 60984 61033 61077 61138 61217 
2437.62  61293 61352 61402 61450 61494 61531 
2460.76  61556 61560 61535 61478 61397 61305 
2483.90  61213 61120 61021 60902 60763 60623 
2507.04  60493 60384 60310 60277 60272 60261 
2530.19  60219 60142 60045 59939 59841 59751 
2553.33  59636 59479 59286 59069 58829 58601 
2576.47  58428 58287 58097 57809 57478 57205 
2599.61  57025 56903 56784 56632 56433 56208 
2622.75  56010 55889 55867 55914 55972 56000 
2645.90  55996 55985 55975 55946 55878 55773 
2669.04  55650 55527 55407 55269 55101 54918 
2692.18  54734 54535 54296 54004 53652 53257 
2715.32  52892 52634 52493 52428 52396 52362 
2738.46  52286 52137 51920 51658 51360 51028 
2761.61  50667 50274 49845 49362 48808 48186 
2784.75  47511 46773 45922 44941 43874 42841 
2807.89  41774 40651 39466 38203 36813 35239 
2831.03  33435 31370 29049 26559 24071 21784 
2854.17  19899 18582 17970 18135 19078 20653 
2877.32  22569 24449 25979 27004 27547 27679 
2900.46  27455 26953 26312 25704 25304 25274 
2923.60  25668 26395 27334 28461 29829 31471 
2946.74  33369 35445 37553 39480 41015 42061 
2969.88  42691 43019 43085 42875 42333 41346 
2993.03  39881 38187 36638 35282 33650 30982 
3016.17  26858 21984 18269 17429 19476 22899 
3039.31  26220 28642 29586 28845 27326 26756 
3062.45  28178 30801 32568 32265 31032 31199 
3085.59  33540 36477 38198 38516 38415 38647 
3108.74  39224 39775 39990 39836 39472 39003 
3131.88  38433 37784 37094 36337 35504 34682 
3155.02  33951 33277 32573 31807 30987 30136 
3178.16  29266 28391 27522 26652 25779 24924 
3201.30  24111 23329 22540 21736 20952 20216 
3224.45  19514 18824 18149 17509 16894 16269 
3247.59  15612 14949 14329 13777 13273 12796 
3270.73  12368 12022 11726 11407 11036 10664 
3293.87  10343 10058 9774 9519 9357 9294 
3317.01  9257 9189 9103 9024 8944 8873 
3340.16  8830 8823 8861 8966 9116 9242 
3363.30  9331 9452 9659 9905 10146 10401 
3386.44  10687 10976 11273 11634 12078 12548 
3409.58  12999 13458 13960 14469 14949 15432 
3432.72  15985 16629 17341 18086 18854 19667 
3455.87  20540 21448 22411 23474 24641 25822 
3479.01  26994 28205 29487 30799 32115 33448 
3502.15  34825 36226 37614 38918 40109 41186 
3525.29  42152 42947 43522 43874 44017 44000 
3548.43  43874 43801 43793 43874 43651 43599 
3571.58  43808 44244 44875 45745 46918 48363 
3594.72  49998 51771 53655 55564 57420 59178 
3617.86  60814 62189 63243 64013 64532 64806 
3641.00  64879 64867 64939 65148 65368 65501 
3664.14  65534 65421 65200 65052 65046 65029 
3687.29  64888 64670 64490 64333 64108 63780 
3710.43  63400 63043 62775 62649 62613 62521 
3733.57  62305 62091 61957 61778 61462 61172 
3756.71  61047 60995 60892 60729 60599 60524 
3779.85  60411 60183 59897 59633 59347 58938 
3803.00  58442 58007 57679 57375 57026 56668 
3826.14  56409 56222 55937 55486 55102 54866 
3849.28  54534 53946 53362 53010 52720 52381 
3872.42  52103 51955 51811 51573 51296 51067 
3895.56  50831 50484 50068 49737 49496 49255 
3918.71  48997 48761 48525 48266 48027 47837 
3941.85  47644 47423 47224 47082 46945 46762 
3964.99  46529 46238 45873 45480 45127 44823 
3988.13  44536 44270 44056 43874 
##END= 
